Time (ms),Membrane Potential (mV),Intracellular Ca2+ (mM),ATP
0.0,-69.99999999999999,0.0001,0.49999999999999994
0.1000100010001,-68.64050515333652,95.53478796349422,0.4955242140976499
0.2000200020002,-67.29809353245221,213.07419219359025,0.49109739891863513
0.3000300030003,-65.99852529294834,356.77338868717277,0.4867190150545148
0.4000400040004,-64.74088767498739,531.2335666015131,0.4823885325237313
0.5000500050005,-63.52413878165086,741.6136908370892,0.4781054250857761
0.6000600060006,-62.347173764614205,993.4186850423221,0.473869201000565
0.7000700070007,-61.20873608762023,1293.1191637630234,0.4696793140726824
0.8000800080008,-60.10764882436926,1647.5524542259102,0.4655352626074891
0.9000900090009001,-59.04274908016493,2063.8714728649625,0.4614365498711546
1.000100010001,-58.012888866515475,2550.0104778722625,0.4573826805614991
1.1001100110011,-57.0169464090297,3114.309416608685,0.45337316408637685
1.2001200120012,-56.053823231450515,3765.481312736214,0.4494075143594171
1.3001300130013,-55.122461402820036,4512.644148830882,0.4454852520103738
1.4001400140014,-54.22182178522742,5365.283984229428,0.4416059016355073
1.5001500150015001,-53.35089701886051,6333.429212548605,0.43776899415937504
1.6001600160016,-52.50871141907637,7427.045511801861,0.4339740651938822
1.7001700170017,-51.69431958660141,8655.809127064753,0.4302206542342868
1.8001800180018002,-50.906812913312336,10030.168155133062,0.4265083084227738
1.9001900190019,-50.14531517532816,11560.786753815848,0.4228365806326747
2.000200020002,-49.40895994555724,13257.10137532755,0.419205025106747
2.1002100210021,-48.696911989113055,15128.687320513565,0.41561320158475074
2.2002200220022,-48.008368655679774,17185.3476711282,0.4120606755720614
2.3002300230023,-47.34255256557721,19436.429486935805,0.4085470172615063
2.4002400240024,-46.69870599850707,21890.08705133791,0.4050718010320972
2.5002500250025,-46.07610139064929,24554.660134051654,0.40163460638676235
2.6002600260026,-45.474037632452784,27438.195976942487,0.39823501762409164
2.7002700270027002,-44.89183070285212,30547.645572220794,0.3948726231320135
2.8002800280028,-44.32881900721132,33889.315587626224,0.3915470157884759
2.9002900290029,-43.7843677022481,37469.234526546876,0.388257793286088
3.0003000300030003,-43.25786218065978,41292.76106958484,0.3850045576517535
3.1003100310031,-42.74869502907127,45364.04785029337,0.38178691429857653
3.2003200320032,-42.25628986603219,49687.02155496483,0.37860447375876916
3.3003300330033003,-41.78009407524199,54265.08414902155,0.37545685115539207
3.4003400340034,-41.31957726472389,59101.04952591314,0.37234366609034386
3.5003500350035,-40.874231266824765,64197.14350711646,0.36926454264436104
3.6003600360036003,-40.44355753271015,69554.88658309756,0.36621910845309646
3.7003700370037,-40.02704534773145,75174.89126811468,0.36320699311041404
3.8003800380038,-39.62422438781101,81057.35099067414,0.3602278320205112
3.9003900390039004,-39.23464444316705,87201.85147939,0.357281264911769
4.000400040004,-38.857873702313334,93607.35480039172,0.35436693571097716
4.1004100410041,-38.49349875205919,100272.1993573241,0.3514844925433344
4.2004200420042,-38.141109339013035,107194.71942658511,0.34863358651230103
4.3004300430043,-37.80028945626116,114373.60753668366,0.34581387098590827
4.4004400440044,-37.47065686776667,121806.30756706609,0.34302500476148
4.5004500450045,-37.15184493323694,129489.75367502143,0.3402666506103486
4.6004600460046,-36.84350214536251,137420.38910966506,0.3375384752408015
4.7004700470047,-36.54529212981706,145594.16621193892,0.33484014929808115
4.8004800480048,-36.25687644620386,154007.70592613384,0.33217134581149316
4.9004900490049,-35.97791786764113,162658.07669952512,0.32953174049051814
5.000500050005,-35.70810539479768,171541.10810687073,0.3269210139833133
5.1005100510051005,-35.4471404517499,180652.32148667538,0.32433885063034507
5.2005200520052,-35.19473686998496,189986.93101964562,0.32178493846294487
5.3005300530053,-34.95062076737025,199539.85214591204,0.3192589691911048
5.4005400540054005,-34.71451227614197,209306.9723149225,0.316760636361065
5.5005500550055,-34.48613844345597,219284.25380049009,0.31428963665610815
5.6005600560056,-34.26524561991842,229466.87212494086,0.31184567114572725
5.7005700570057005,-34.051590272354865,239849.85499657053,0.3094284443592532
5.8005800580058,-33.84493898381037,250428.08230964438,0.3070376642858556
5.9005900590059,-33.645068556303286,261196.3311085156,0.3046730426538263
6.0006000600060005,-33.451767969091435,272150.54256620194,0.3023343024076989
6.1006100610061,-33.264828951673664,283286.2402009499,0.3000211654492929
6.2006200620062,-33.08404222714079,294598.44258232665,0.29773335060583156
6.300630063006301,-32.909198518583594,306082.16827989934,0.2954705767045379
6.4006400640064,-32.7400885490929,317732.4358632347,0.2932325625726352
6.5006500650065,-32.576503041759494,329544.26390189986,0.2910190270373466
6.600660066006601,-32.41823271967418,341512.67096546205,0.2888296889258953
6.7006700670067,-32.26510535646444,353633.1483410379,0.2866642855624569
6.8006800680068,-32.11703290058057,365902.26127902773,0.28452259629428733
6.900690069006901,-31.97384835833152,378315.56782888406,0.2824043610579041
7.000700070007,-31.83537913994476,390868.5546412035,0.2803093169960604
7.1007100710071,-31.701452655647742,403556.70836658275,0.2782372012515094
7.200720072007201,-31.57189631566794,416375.5156556187,0.2761877509670045
7.3007300730073,-31.446537530232796,429320.4631589075,0.27416070328529885
7.4007400740074,-31.325206725031677,442387.0832708113,0.27215579695195763
7.500750075007501,-31.20783999343877,455572.511336726,0.2701728268782057
7.6007600760076,-31.094347949089805,468873.49618110503,0.2682115744319949
7.7007700770077,-30.98459733043025,482286.12105328584,0.2662717976602491
7.800780078007801,-30.878454875905554,495806.469202606,0.2643532546098923
7.9007900790079,-30.77578732396118,509430.6238784024,0.26245570332784834
8.000800080008,-30.676461413042574,523154.6683300126,0.2605789018610414
8.1008100810081,-30.5803438815952,536974.685806774,0.2587226082563952
8.2008200820082,-30.48732924019777,550887.3483884757,0.25688659871968184
8.3008300830083,-30.397381654701356,564890.8050002455,0.25507069500087043
8.4008400840084,-30.310402362698152,578981.8703493888,0.2532746777042002
8.5008500850085,-30.226287433027675,593157.2495542592,0.2514983240543142
8.6008600860086,-30.144932934529436,607413.6477332113,0.24974141127585545
8.7008700870087,-30.066234936042957,621747.770004598,0.24800371659346693
8.8008800880088,-29.990089506407738,636156.3214867737,0.24628501723179178
8.9008900890089,-29.91638951706302,650635.8913535114,0.2445850793743414
9.000900090009,-29.844925144669702,665179.2351755366,0.24290328308222128
9.1009100910091,-29.775616858818463,679783.5223270773,0.24123936903874701
9.2009200920092,-29.7084646595093,694448.7528081342,0.23959333724391854
9.3009300930093,-29.643468546742216,709174.9266187067,0.23796518769773592
9.4009400940094,-29.580628520517216,723962.0437587947,0.23635492040019915
9.5009500950095,-29.51994458083429,738810.1042283985,0.2347625353513082
9.6009600960096,-29.46141672769345,753719.1080275184,0.23318803255106305
9.7009700970097,-29.404981440606825,768686.8667347634,0.23163122390200072
9.8009800980098,-29.35027211295723,783700.7499407997,0.2300910238051758
9.900990099009901,-29.297230000800784,798758.7337867486,0.228567258307472
10.00100010001,-29.245855104137497,813860.81827261,0.22705992740888928
10.1010101010101,-29.196147422967364,829007.0033983842,0.2255690311094277
10.201020102010201,-29.14810695729038,844197.2891640711,0.22409456940908723
10.3010301030103,-29.101733707106558,859431.6755696705,0.2226365423078679
10.4010401040104,-29.057027672415884,874710.1626151827,0.22119494980576965
10.501050105010501,-29.01385319033701,890027.9677064283,0.219769320710622
10.6010601060106,-28.971967292937787,905376.525368412,0.2183588111321421
10.7010701070107,-28.93136514301629,920755.6650727367,0.21696340426948024
10.801080108010801,-28.892046740572514,936165.3868194016,0.2155831001226364
10.9010901090109,-28.854012085606456,951605.6906084069,0.21421789869161068
11.001100110011,-28.817261178118116,967076.5764397528,0.21286779997640295
11.101110111011101,-28.7817940181075,982578.0443134392,0.21153280397701332
11.2011201120112,-28.747610327727955,998110.0824468067,0.2102129070561223
11.3011301130113,-28.714686193675924,1013671.7581180448,0.20890790556458644
11.401140114011401,-28.68296915392816,1029261.1611477084,0.2076175356665116
11.5011501150115,-28.652407200451783,1044876.4411293174,0.2063415939486602
11.6011601160116,-28.622948325213923,1060515.7476563917,0.2050798769977945
11.701170117011701,-28.5945405201817,1076177.2303224513,0.20383218140067694
11.8011801180118,-28.567131777322246,1091859.0387210161,0.20259830374406987
11.9011901190119,-28.540670088602678,1107559.3224456059,0.20137804061473563
12.001200120012001,-28.51510344599013,1123276.231089741,0.2001711885994366
12.1012101210121,-28.490379841451723,1139007.9142469405,0.1989775442849352
12.2012201220122,-28.46644726695459,1154752.5215107251,0.1977969042579937
12.301230123012301,-28.443253714465847,1170508.2024746144,0.19662906510537453
12.4012401240124,-28.420747175952627,1186273.106732128,0.19547382341384004
12.5012501250125,-28.39887564338205,1202045.3838767863,0.1943309757701526
12.601260126012601,-28.377587108721244,1217823.1835021093,0.1932003187610745
12.7012701270127,-28.356829563937332,1233604.6552016162,0.19208164897336824
12.8012801280128,-28.336583002727608,1249389.0713287785,0.19097483966760492
12.901290129012901,-28.31697983363058,1265181.0516129385,0.1898801292791864
13.001300130013,-28.298021808027244,1280980.6317617907,0.18879744319850542
13.1013101310131,-28.279685815794497,1296786.9752332817,0.18772664724960614
13.201320132013201,-28.26194874680924,1312599.245485356,0.18666760725653264
13.3013301330133,-28.244787490948358,1328416.6059759588,0.1856201890433291
13.4013401340134,-28.228178938088753,1344238.2201630357,0.18458425843403967
13.501350135013501,-28.212099978107315,1360063.2515045318,0.1835596812527084
13.6013601360136,-28.196527500880936,1375890.863458392,0.18254632332337953
13.7013701370137,-28.18143839628652,1391720.219482563,0.18154405047009714
13.801380138013801,-28.16680955420095,1407550.4830349884,0.18055272851690543
13.9013901390139,-28.152617864501124,1423380.817573614,0.17957222328784853
14.001400140014,-28.13884021706394,1439210.3865563853,0.17860240060697052
14.101410141014101,-28.125453501766287,1455038.3534412477,0.17764312629831555
14.2014201420142,-28.11243460848506,1470863.8816861461,0.17669426618592782
14.3014301430143,-28.099760427097156,1486686.1347490265,0.1757556860938514
14.401440144014401,-28.08744746525564,1502505.7274027707,0.17482732087775554
14.5014501450145,-28.07554203279497,1518324.3661612733,0.1739091573218428
14.6014601460146,-28.06403433785245,1534141.702369286,0.17300108445643606
14.701470147014701,-28.052913880371268,1549957.361428339,0.17210299007787197
14.8014801480148,-28.042170160294596,1565770.9687399624,0.1712147619824874
14.9014901490149,-28.031792677565637,1581582.149705688,0.17033628796661882
15.001500150015001,-28.021770932127556,1597390.529727046,0.16946745582660303
15.1015101510151,-28.01209442392355,1613195.7342055668,0.16860815335877669
15.2015201520152,-28.002752652896795,1628997.3885427814,0.16775826835947646
15.301530153015301,-27.993735118990486,1644795.1181402204,0.16691768862503906
15.4015401540154,-27.985031322147798,1660588.5483994142,0.1660863019518012
15.5015501550155,-27.976630762311917,1676377.3047218942,0.16526399613609952
15.601560156015601,-27.96852293942603,1692161.0125091905,0.16445065897427066
15.7015701570157,-27.96069735343332,1707939.2971628334,0.16364617826265143
15.8015801580158,-27.953143504276973,1723711.7840843545,0.16285044179757846
15.901590159015901,-27.945851206954192,1739478.1097101837,0.16206334098463387
16.001600160016,-27.93881817767221,1755238.1872199487,0.16128485774532653
16.1016101610161,-27.93203862964284,1770991.8070993936,0.16051493387099836
16.2016201620162,-27.925503525217405,1786738.6459715085,0.15975347391127162
16.301630163016302,-27.919203826747218,1802478.3804592818,0.15900038241576853
16.4016401640164,-27.913130496583598,1818210.6871857033,0.15825556393411128
16.5016501650165,-27.907274497077875,1833935.2427737638,0.15751892301592196
16.6016601660166,-27.901626790581357,1849651.723846452,0.15679036421082287
16.7016701670167,-27.89617833944537,1865359.8070267579,0.1560697920684362
16.8016801680168,-27.890920106021238,1881059.1689376705,0.15535711113838413
16.901690169016902,-27.88584305266027,1896749.4862021804,0.15465222597028883
17.001700170017,-27.880938141713788,1912430.4354432758,0.15395504111377262
17.1017101710171,-27.876196335533123,1928101.6932839479,0.15326546111845754
17.2017201720172,-27.87160859646958,1943762.9363471856,0.15258339053396583
17.3017301730173,-27.867165886874485,1959413.8412559787,0.15190873390991977
17.4017401740174,-27.86285916909916,1975054.0846333164,0.1512413957959415
17.501750175017502,-27.858677473682228,1990683.290993659,0.15058119079611268
17.6017601760176,-27.854607238104297,2006301.0483256048,0.14992767618345584
17.7017701770177,-27.85064725079046,2021907.3216874364,0.14928080478773384
17.8017801780178,-27.846797511740707,2037502.1110791534,0.1486405766089467
17.9017901790179,-27.84305802095505,2053085.4165007556,0.14800699164709433
18.001800180018,-27.839428778433476,2068657.237952243,0.14738004990217685
18.101810181018102,-27.835909784175996,2084217.575433616,0.1467597513741942
18.2018201820182,-27.832501038182606,2099766.428944874,0.1461460960631464
18.3018301830183,-27.829202540453306,2115303.7984860176,0.14553908396903342
18.4018401840184,-27.82601429098809,2130829.6840570467,0.1449387150918553
18.5018501850185,-27.82293628978697,2146344.0856579607,0.144344989431612
18.6018601860186,-27.819968536849935,2161847.0032887603,0.14375790698830354
18.701870187018702,-27.817111032176992,2177338.436949446,0.14317746776192994
18.8018801880188,-27.81436377576814,2192818.3866400155,0.14260367175249117
18.9018901890189,-27.811726767623377,2208286.8523604716,0.14203651895998723
19.001900190019,-27.809200007742703,2223743.8341108123,0.14147600938441812
19.1019101910191,-27.80678349612612,2239189.331891039,0.14092214302578387
19.2019201920192,-27.804475311815004,2254623.283818782,0.14037487383300906
19.301930193019302,-27.80224159430439,2270044.5991010102,0.13983339006936538
19.4019401940194,-27.800069933914695,2285452.8779683756,0.13929739423802823
19.5019501950195,-27.797960330645918,2300848.12042088,0.1387668863389976
19.6019601960196,-27.795912784498057,2316230.326458522,0.1382418663722735
19.7019701970197,-27.793927295471114,2331599.4960813024,0.1377223343378559
19.801980198019802,-27.79200386356509,2346955.6292892206,0.13720829023574488
19.901990199019902,-27.790142488779985,2362298.7260822766,0.13669973406594035
20.00200020002,-27.788343171115795,2377628.78646047,0.1361966658284424
20.1020102010201,-27.78660591057252,2392945.8104238017,0.1356990855232509
20.2020202020202,-27.784930707150167,2408249.797972271,0.13520699315036602
20.3020302030203,-27.78331756084873,2423540.749105879,0.13472038870978761
20.402040204020402,-27.781766471668213,2438818.663824625,0.13423927220151574
20.502050205020502,-27.780277439608607,2454083.5421285084,0.1337636436255504
20.6020602060206,-27.778850464669926,2469335.384017529,0.1332935029818916
20.7020702070207,-27.77748554685216,2484574.1894916887,0.1328288502705393
20.8020802080208,-27.77618268615531,2499799.958550986,0.13236968549149358
20.9020902090209,-27.77494188257938,2515012.691195421,0.13191600864475436
21.002100210021002,-27.77374769727491,2530211.929266082,0.13146736042367363
21.102110211021103,-27.772583263301538,2545397.172224436,0.13102323903581778
21.2021202120212,-27.771448572497224,2560568.4198282682,0.13058364423836588
21.3021302130213,-27.77034362486198,2575725.6720775804,0.13014857603131794
21.4021402140214,-27.7692684203958,2590868.928972371,0.12971803441467397
21.5021502150215,-27.768222959098686,2605998.190512641,0.12929201938843393
21.602160216021602,-27.767207240970635,2621113.4566983897,0.12887053095259787
21.702170217021703,-27.766221266011648,2636214.727529617,0.12845356910716577
21.8021802180218,-27.765265034221724,2651302.0030063237,0.12804113385213767
21.9021902190219,-27.764338545600868,2666375.2831285093,0.12763322518751347
22.002200220022,-27.763441800149074,2681434.567896174,0.12722984311329325
22.1022102210221,-27.762574797866346,2696479.857309317,0.12683098762947698
22.202220222022202,-27.761737538752683,2711511.15136794,0.1264366587360647
22.302230223022303,-27.760930022808083,2726528.4500720417,0.12604685643305633
22.4022402240224,-27.760152250032547,2741531.7534216214,0.12566158072045197
22.5022502250225,-27.759404220426077,2756521.061416681,0.12528083159825157
22.6022602260226,-27.758685933988673,2771496.3740572194,0.1249046090664551
22.7022702270227,-27.757998390012546,2786457.744071136,0.12453288881094306
22.802280228022802,-27.757344030679928,2801405.320162121,0.12416556493682038
22.902290229022903,-27.75672153711179,2816339.0745283696,0.12380257165358823
23.002300230023,-27.756129325584187,2831258.966153165,0.12344384783538884
23.1023102310231,-27.755565812373177,2846164.954019793,0.12308933235636442
23.2023202320232,-27.755029413754816,2861056.9971115366,0.12273896409065715
23.3023302330233,-27.754518546005155,2875935.054411681,0.12239268191240923
23.402340234023402,-27.754031625400252,2890799.0849035084,0.1220504246957629
23.502350235023503,-27.753567068216164,2905649.0475703035,0.1217121313148603
23.6023602360236,-27.753123290728947,2920484.9013953498,0.12137774064384368
23.7023702370237,-27.752698709214656,2935306.605361933,0.1210471915568552
23.8023802380238,-27.75229173994934,2950114.1184533355,0.1207204229280371
23.9023902390239,-27.751900799209068,2964907.3996528415,0.12039737363153155
24.002400240024002,-27.751524303269882,2979686.4079437354,0.12007798254148075
24.102410241024103,-27.751160668407852,2994451.1023093006,0.11976218853202693
24.2024202420242,-27.75080831089902,3009201.4417328206,0.11944993047731225
24.3024302430243,-27.750465647019446,3023937.3851975817,0.11914114725147897
24.4024402440244,-27.75013109304519,3038658.8916868656,0.11883577772866921
24.5024502450245,-27.749803065252305,3053365.9201839566,0.11853376078302522
24.602460246024602,-27.749479979916845,3068058.4296721397,0.1182350352886892
24.702470247024703,-27.74916025331487,3082736.3791346974,0.11793954011980334
24.8024802480248,-27.74884230172243,3097399.7275549145,0.11764721415050984
24.9024902490249,-27.748524541415584,3112048.4339160756,0.11735799625495091
25.002500250025,-27.748205388670385,3126682.457201464,0.11707182530726874
25.1025102510251,-27.747883259762887,3141301.7563943635,0.11678864018160554
25.202520252025202,-27.747556570969156,3155906.290478058,0.11650837975210349
25.302530253025303,-27.747223738565236,3170496.0184358326,0.1162309828929048
25.4025402540254,-27.746883178827186,3185070.899250969,0.11595638847815169
25.5025502550255,-27.74653330803107,3199630.8919067536,0.11568453538198634
25.6025602560256,-27.74617254245293,3214175.9553864687,0.11541536247855096
25.7025702570257,-27.745799298368834,3228706.0486733993,0.11514880864198772
25.802580258025802,-27.745411992054827,3243221.130750829,0.11488481274643886
25.9025902590259,-27.745009039786968,3257721.1606020415,0.11462331366604657
26.002600260026,-27.744588864028252,3272206.097423838,0.11436425041164576
26.1026102610261,-27.7441618467729,3286676.3131490145,0.11410782622520459
26.2026202620262,-27.743738223154406,3301132.174642047,0.11385424110398365
26.302630263026302,-27.74331774240726,3315573.6868880163,0.11360346337220269
26.402640264026402,-27.742900153765977,3330000.8548720037,0.11335546135408135
26.5026502650265,-27.742485206465062,3344413.6835790896,0.11311020337383934
26.6026602660266,-27.742072649739015,3358812.1779943556,0.11286765775569635
